"Time (s)","X (rad/s)","Y (rad/s)","Z (rad/s)"
1.264354168E-2,-2.382175624E-1,1.026588157E-1,3.201505169E-2
2.266854167E-2,-2.269297540E-1,1.040694863E-1,4.571355134E-2
3.269454167E-2,-1.906830668E-1,1.074250713E-1,5.441836268E-2
4.272054168E-2,-1.391258538E-1,1.184550896E-1,5.589135364E-2
5.274654168E-2,-6.621617824E-2,1.643611938E-1,9.280216694E-2
6.277154168E-2,-1.568190195E-2,2.378303558E-1,9.753300250E-2
7.279754168E-2,6.797839887E-4,2.562792003E-1,9.093445539E-2
8.282354168E-2,-2.251048945E-2,2.440979183E-1,8.467736095E-2
9.284854168E-2,-7.989675552E-2,2.221136093E-1,9.350288659E-2
1.028745417E-1,-1.519365907E-1,2.232718170E-1,1.178670824E-1
1.129005417E-1,-2.152347565E-1,2.184148729E-1,1.492007077E-1
1.229255417E-1,-2.575755417E-1,2.153554410E-1,1.729286760E-1
1.329515417E-1,-2.736779153E-1,2.181725800E-1,1.933427006E-1
1.429775417E-1,-2.515342534E-1,2.280169576E-1,2.120809704E-1
1.530025417E-1,-1.636546552E-1,2.724582553E-1,2.350421697E-1
1.630285417E-1,-6.718590856E-2,3.099518418E-1,2.661468387E-1
1.730545417E-1,2.041296102E-4,3.386626840E-1,2.871837616E-1
1.830805417E-1,3.894886374E-2,3.775762618E-1,2.914978266E-1
1.931055417E-1,5.622370541E-2,4.139025807E-1,3.029680252E-1
2.031315417E-1,5.310993642E-2,4.391211271E-1,3.208258748E-1
2.131575417E-1,3.121327609E-2,4.671990871E-1,3.523921967E-1
2.231825417E-1,4.580601584E-3,4.751424789E-1,3.828366399E-1
2.332085417E-1,-3.116497397E-2,4.775596857E-1,4.331116378E-1
2.432345417E-1,-7.778067887E-2,4.784585238E-1,5.035138726E-1
2.532595417E-1,-1.329716593E-1,4.974068999E-1,5.924766660E-1
2.632855417E-1,-2.018766850E-1,5.396510363E-1,6.929657459E-1
2.733115417E-1,-2.997501791E-1,5.944942832E-1,7.943494320E-1
2.833375417E-1,-4.257579148E-1,6.626943946E-1,8.827602863E-1
2.933625417E-1,-5.679663420E-1,7.078254819E-1,9.690154791E-1
3.033885417E-1,-7.024080157E-1,7.113448381E-1,1.052361250E0
3.134145417E-1,-8.243643045E-1,7.000260353E-1,1.123711348E0
3.234395417E-1,-9.202274680E-1,6.976642609E-1,1.168928385E0
3.334655417E-1,-9.896353483E-1,7.342236042E-1,1.181700468E0
3.434915417E-1,-1.039999247E0,7.928427458E-1,1.173833251E0
3.535165417E-1,-1.045578599E0,7.634338140E-1,1.143293381E0
3.635425417E-1,-6.958432794E-1,3.760533035E-1,1.071011543E0
3.735685417E-1,-2.955231071E-1,5.023936033E-1,1.036479592E0
3.835935417E-1,1.192072034E-2,6.347045302E-1,1.047613263E0
3.936195417E-1,2.467023432E-1,6.087991595E-1,1.043370008E0
4.036455417E-1,3.892387152E-1,5.650985241E-1,9.671453238E-1
4.136715417E-1,4.563677311E-1,4.348294437E-1,7.570998669E-1
4.236965417E-1,4.875192642E-1,2.346699983E-1,4.128617644E-1
4.337225417E-1,4.724232256E-1,1.110828668E-1,2.353736460E-1
4.437485417E-1,4.602707028E-1,-3.960091621E-2,3.694158792E-1
4.537735417E-1,4.826346040E-1,-1.363535970E-1,6.637609601E-1
4.637995417E-1,4.590576589E-1,-1.586660370E-2,9.952962995E-1
4.738255417E-1,4.520867169E-1,3.653348088E-1,1.349099755E0
4.838505417E-1,3.704278171E-1,4.795196950E-1,1.712282062E0
4.938767917E-1,2.255097032E-1,6.072010994E-1,1.919461846E0
5.039027917E-1,1.841172576E-1,9.727881551E-1,1.992540002E0
5.139287917E-1,7.196424901E-2,1.147369981E0,1.961231351E0
5.239537917E-1,-1.307355911E-1,1.154311180E0,1.795289755E0
5.339797917E-1,-3.943120241E-1,9.491221309E-1,1.563200116E0
5.440057917E-1,-6.297109127E-1,5.850682259E-1,1.361196756E0
5.540307917E-1,-7.279465199E-1,3.552908599E-1,1.254732013E0
5.640567917E-1,-7.091267705E-1,2.676749825E-1,1.232735634E0
5.740827917E-1,-6.953355074E-1,1.781316847E-1,1.303812861E0
5.841077917E-1,-7.347438931E-1,1.632097363E-1,1.419434071E0
5.941337917E-1,-8.274878860E-1,8.616307378E-2,1.487807393E0
6.041597917E-1,-9.347624183E-1,-6.072837114E-2,1.487348437E0
6.141857917E-1,-1.039972067E0,-1.885545254E-1,1.478415608E0
6.242107917E-1,-1.149941206E0,-3.716564476E-1,1.547025800E0
6.342367917E-1,-1.249986172E0,-6.418615580E-1,1.731577992E0
6.442627917E-1,-1.399189234E0,-7.895237207E-1,2.053162098E0
6.542877917E-1,-1.629985213E0,-7.642140985E-1,2.384078979E0
6.643137917E-1,-1.992365003E0,-3.867706954E-1,2.549939871E0
6.743397917E-1,-2.405210733E0,2.460407615E-1,2.524495840E0
6.843647917E-1,-2.534331799E0,7.733024359E-1,2.171916008E0
6.943907917E-1,-2.352695942E0,7.245614529E-1,1.641590118E0
7.044167917E-1,-2.019407749E0,4.827222787E-3,1.170675635E0
7.144427917E-1,-1.514680505E0,-7.919141054E-1,9.398397803E-1
7.244677917E-1,-9.197300076E-1,-1.191272140E0,8.604312539E-1
7.344937917E-1,-3.917079270E-1,-1.043892980E0,7.922880054E-1
7.445197917E-1,-3.427894413E-2,-4.429219067E-1,7.078990936E-1
7.545447917E-1,1.449590325E-1,1.770287007E-1,6.270937324E-1
7.645707917E-1,2.507070601E-1,4.196085930E-1,5.719015598E-1
7.745967917E-1,3.712366223E-1,3.359488547E-1,4.979752600E-1
7.846217917E-1,4.551893175E-1,4.774261639E-2,4.323421717E-1
7.946477917E-1,3.665753901E-1,-1.984282732E-1,4.044258893E-1
8.046737917E-1,9.058507532E-2,-1.383063495E-1,4.413173199E-1
8.146987917E-1,-2.821908295E-1,3.504562378E-1,5.610935688E-1
8.247247917E-1,-7.831412554E-1,1.011270642E0,6.188247800E-1
8.347507917E-1,-1.160930395E0,1.102552891E0,6.049888730E-1
8.447767917E-1,-1.389774799E0,1.062337518E0,5.980537534E-1
8.548017917E-1,-1.499169469E0,1.437977672E0,6.152407527E-1
8.648277917E-1,-1.120417953E0,1.111782789E0,5.968878865E-1
8.748537917E-1,-4.608043134E-1,6.940990090E-1,4.119192362E-1
8.848787917E-1,1.798457205E-1,6.166460514E-1,2.430817187E-1
8.949047917E-1,6.253759265E-1,5.052611828E-1,6.729232520E-2
9.049307917E-1,7.744109631E-1,1.171456650E-1,-5.270306021E-2
9.149557917E-1,7.620416284E-1,-2.520554364E-1,-1.131912321E-1
9.249817917E-1,6.631901860E-1,-4.529344738E-1,-1.735807955E-1
9.350077917E-1,5.635429621E-1,-5.477739573E-1,-2.419842035E-1
9.450337917E-1,5.292827487E-1,-5.812267661E-1,-2.703322172E-1
9.550587917E-1,5.696933866E-1,-6.937501431E-1,-2.704937160E-1
9.650847917E-1,6.307706237E-1,-8.610320687E-1,-2.690207362E-1
9.751107917E-1,6.725156903E-1,-9.471018314E-1,-2.524776161E-1
9.851357917E-1,6.720176935E-1,-9.368119240E-1,-2.082755417E-1
9.951617917E-1,6.482534409E-1,-8.500959277E-1,-1.613527983E-1
1.005187792E0,6.052899957E-1,-6.617121696E-1,-1.144255027E-1
1.015213792E0,5.638601780E-1,-4.157163203E-1,-7.448668778E-2
1.025238792E0,5.427205563E-1,-2.446694672E-1,-5.082849786E-2
1.035264792E0,5.560691953E-1,-1.816913486E-1,-3.738670796E-2
1.045290792E0,5.967506170E-1,-1.411119550E-1,-2.713513188E-2
1.055315792E0,6.610497236E-1,-8.302408271E-3,-3.247122467E-2
1.065341792E0,7.469268441E-1,1.136328205E-1,-4.011876136E-2
1.075367792E0,7.710005641E-1,8.097146451E-2,-3.000403009E-2
1.085392792E0,7.271375060E-1,-5.223825574E-2,-4.743575305E-2
1.095418792E0,7.384023070E-1,-5.468151532E-3,-1.217886508E-1
1.105444792E0,8.098245859E-1,1.278736591E-1,-2.362414449E-1
1.115469792E0,8.808942437E-1,2.265459299E-1,-3.181700110E-1
1.125495792E0,8.709265590E-1,2.553589344E-1,-3.573413789E-1
1.135521792E0,7.308127880E-1,2.040979266E-1,-3.398423195E-1
1.145547792E0,5.806312561E-1,1.953217387E-1,-2.951329052E-1
1.155572792E0,4.523539245E-1,2.792268693E-1,-2.484787852E-1
1.165598792E0,3.930770159E-1,1.312619001E-1,-1.587837785E-1
1.175624792E0,3.417815268E-1,-1.010365188E-1,-9.084509313E-2
1.185649792E0,2.772643268E-1,-9.522496909E-2,-8.002467453E-2
1.195675792E0,2.215455770E-1,-5.052544922E-2,-1.076171324E-1
1.205701792E0,1.849806309E-1,-1.989164203E-2,-1.076512188E-1
1.215727792E0,1.800546199E-1,-3.784274682E-2,-6.316401064E-2
1.225752792E0,2.007750869E-1,-1.209131330E-1,1.646273304E-4
1.235778792E0,2.170873582E-1,-2.472014129E-1,5.865489319E-2
1.245804792E0,1.853542030E-1,-2.901733816E-1,8.833635598E-2
1.255829792E0,9.783937037E-2,-2.473946512E-1,1.042034104E-1
1.265855792E0,-1.695724949E-2,-1.883720756E-1,1.520582736E-1
1.275881792E0,-1.581945419E-1,2.137585916E-2,2.975410521E-1
1.285906792E0,-4.173339605E-1,2.496343255E-1,5.399006605E-1
1.295932792E0,-7.229446769E-1,5.337443948E-1,7.686592937E-1
1.305958792E0,-1.014813781E0,7.512711287E-1,9.174727201E-1
1.315984792E0,-1.303436399E0,7.151457071E-1,8.730601668E-1
1.326009792E0,-1.590966940E0,5.190427899E-1,6.720218658E-1
1.336035792E0,-1.829305887E0,2.678764760E-1,5.720067024E-1
1.346061792E0,-1.975166678E0,-2.499671876E-1,6.694229841E-1
1.356086792E0,-2.056777716E0,-4.564068615E-1,8.148674965E-1
1.366112792E0,-2.035408497E0,-2.944459319E-1,8.793870807E-1
1.376138792E0,-1.940004349E0,-1.207731217E-1,8.368619084E-1
1.386163792E0,-1.763526797E0,1.548113227E-1,7.047291994E-1
1.396189792E0,-1.573140860E0,2.748279274E-1,5.461899638E-1
1.406215792E0,-1.388408542E0,6.122668833E-2,4.131197929E-1
1.416241792E0,-1.191227913E0,-2.476233989E-1,3.192933500E-1
1.426266792E0,-1.067447901E0,-6.133907437E-1,2.245415300E-1
1.436292792E0,-9.778877497E-1,-7.710136175E-1,1.336353272E-1
1.446318792E0,-8.996661901E-1,-8.407090902E-1,3.898045793E-2
1.456343792E0,-8.395693302E-1,-8.131551147E-1,-2.679197118E-2
1.466369792E0,-7.481377125E-1,-6.026082635E-1,-3.688907996E-2
1.476395792E0,-6.143252254E-1,-3.241238296E-1,-4.283194616E-2
1.486420792E0,-4.615090489E-1,-1.757002771E-1,-6.678760797E-2
1.496447292E0,-3.717833757E-1,-2.100721300E-1,-1.068537831E-1
1.506473292E0,-3.350128531E-1,-2.452469021E-1,-1.441297978E-1
1.516499292E0,-3.325516880E-1,-3.005295098E-1,-1.794126034E-1
1.526524292E0,-3.679275215E-1,-2.873971760E-1,-2.005650252E-1
1.536550292E0,-3.818118274E-1,-2.691934705E-1,-2.037896812E-1
1.546576292E0,-3.423011601E-1,-2.961563766E-1,-1.572687775E-1
1.556601292E0,-3.056257069E-1,-4.493467808E-1,-9.146325290E-2
1.566627292E0,-2.737375498E-1,-4.835034013E-1,-6.802530587E-2
1.576653292E0,-2.620258033E-1,-4.146045446E-1,-7.371658832E-2
1.586678292E0,-2.870486081E-1,-2.379360199E-1,-8.708433062E-2
1.596704292E0,-3.417231143E-1,-7.964830846E-2,-1.136976033E-1
1.606730292E0,-4.346165657E-1,6.006298959E-2,-1.111883670E-1
1.616756292E0,-5.409751534E-1,1.943277419E-1,-7.119709253E-2
1.626781292E0,-6.327844262E-1,2.979718447E-1,1.111935172E-2
1.636807292E0,-7.062109113E-1,4.515550733E-1,1.531956345E-1
1.646833292E0,-7.306933403E-1,6.306239367E-1,2.608153224E-1
1.656858292E0,-7.605536580E-1,7.694180012E-1,3.562193513E-1
1.666884292E0,-7.766351700E-1,8.382995725E-1,4.240522087E-1
1.676910292E0,-7.861635685E-1,7.713612914E-1,4.444957674E-1
1.686936292E0,-7.889452577E-1,5.767774582E-1,4.119711220E-1
1.696961292E0,-7.757587433E-1,3.065937161E-1,3.922687769E-1
1.706987292E0,-8.005656004E-1,7.411149144E-2,3.840649128E-1
1.717013292E0,-7.988492846E-1,4.683561623E-2,3.604392111E-1
1.727038292E0,-7.268893123E-1,1.422750503E-1,2.813965678E-1
1.737064292E0,-5.852540731E-1,3.052103221E-1,1.669957787E-1
1.747090292E0,-3.896795213E-1,5.146261454E-1,7.823634148E-2
1.757115292E0,-2.274087965E-1,7.276001573E-1,7.332894951E-2
1.767141292E0,-1.342298388E-1,9.131398797E-1,1.854214072E-1
1.777167292E0,-7.528714836E-2,1.086402297E0,4.247400761E-1
1.787193292E0,-3.473599255E-2,1.360265255E0,6.853671074E-1
1.797218292E0,-1.538415067E-2,1.690327406E0,8.750230670E-1
1.807244292E0,-3.059426323E-2,2.094741821E0,1.034653187E0
1.817270292E0,-1.263458878E-1,2.175086498E0,1.200363040E0
1.827295292E0,-6.080885530E-1,1.245074153E0,1.289212227E0
1.837321292E0,-1.327672362E0,3.732340783E-2,1.161016107E0
1.847347292E0,-1.764800668E0,-2.337424457E-1,8.880389333E-1
1.857373292E0,-1.652055264E0,2.966839373E-1,5.942653418E-1
1.867398292E0,-1.049541593E0,4.413527250E-1,3.784643412E-1
1.877424292E0,-5.615758896E-1,1.188802868E-1,2.488705814E-1
1.887450292E0,-2.142499238E-1,1.388593316E-1,2.599320412E-1
1.897475292E0,-1.744260490E-1,3.508668542E-1,2.613590956E-1
1.907501292E0,-2.687879503E-1,3.433822989E-1,1.449480802E-1
1.917527292E0,-3.134789467E-1,2.014298141E-1,9.125404060E-2
1.927553292E0,-3.069824278E-1,8.742333949E-2,1.436336190E-1
1.937578292E0,-3.056072593E-1,-3.878505901E-3,2.158828527E-1
1.947604292E0,-3.158114254E-1,-5.256721377E-2,2.619161606E-1
1.957630292E0,-3.390113711E-1,-9.252547473E-2,2.508570552E-1
1.967655292E0,-3.845826089E-1,-6.002771109E-2,1.995413899E-1
1.977681292E0,-5.175631046E-1,-1.775171608E-2,2.499068826E-1
1.987707292E0,-6.425899863E-1,3.170744330E-2,3.778547347E-1
1.997732292E0,-6.822937131E-1,3.405115008E-2,4.456592798E-1
2.007758292E0,-6.347528100E-1,1.052811220E-1,4.961802363E-1
2.017784292E0,-4.746439755E-1,4.528216720E-1,5.068623424E-1
2.027809292E0,-2.221475393E-1,9.560425282E-1,4.417403638E-1
2.037835292E0,4.824095871E-3,1.253031135E0,2.940805256E-1
2.047861292E0,1.255262792E-1,1.308181167E0,1.455613524E-1
2.057887292E0,7.689333707E-2,1.266209602E0,7.829822600E-2
2.067912292E0,-1.070951447E-1,1.174133182E0,9.358050674E-2
2.077938292E0,-3.818998337E-1,1.043377280E0,1.227009073E-1
2.087964292E0,-6.250027418E-1,1.003628254E0,8.315323293E-2
2.097989292E0,-7.302318215E-1,1.095324278E0,-4.895338044E-2
2.108015292E0,-7.371078134E-1,1.208705425E0,-1.994720399E-1
2.118041292E0,-7.106082439E-1,1.328812957E0,-3.620950282E-1
2.128067292E0,-6.357358694E-1,1.408188462E0,-5.247462988E-1
2.138092292E0,-5.098361969E-1,1.366648674E0,-6.375317574E-1
2.148118292E0,-3.900552094E-1,1.231599450E0,-6.279553175E-1
2.158144292E0,-3.275822997E-1,1.080322266E0,-4.727538228E-1
2.168169292E0,-2.503953576E-1,8.745089173E-1,-2.750356793E-1
2.178195292E0,-1.336874366E-1,6.086475849E-1,-2.083744705E-1
2.188221292E0,-1.934860833E-2,3.239852190E-1,-3.782473803E-1
2.198247292E0,8.315388113E-2,1.374226063E-1,-6.894357800E-1
2.208272292E0,1.214578673E-1,3.116754815E-2,-9.227550626E-1
2.218298292E0,1.218262017E-1,1.302031241E-2,-1.024725199E0
2.228324292E0,7.923958451E-2,-3.872171044E-2,-9.957802892E-1
2.238349292E0,3.184728324E-2,-2.211471349E-1,-9.348559976E-1
2.248375292E0,2.945310436E-2,-2.524856031E-1,-8.545507789E-1
2.258401292E0,5.320782214E-2,-1.646218449E-1,-8.243280053E-1
2.268426292E0,5.296467617E-2,-3.495784849E-2,-8.508378863E-1
2.278452292E0,-9.668385983E-2,5.894970298E-1,-1.019500613E0
2.288478292E0,-2.979109883E-1,5.182188749E-1,-1.181418300E0
2.298504292E0,-3.701598942E-1,7.521110773E-2,-1.098664641E0
2.308529292E0,-1.884694546E-1,-1.119683683E-1,-9.511492848E-1
2.318555292E0,7.962894440E-2,-1.675971448E-1,-1.045869112E0
2.328581292E0,2.049658298E-1,-3.368421197E-1,-1.321116686E0
2.338606292E0,1.552771181E-1,-3.694558740E-1,-1.538255334E0
2.348632292E0,3.054396808E-2,-2.360256165E-1,-1.626796842E0
2.358658292E0,2.390512079E-2,-2.972258627E-1,-1.599628091E0
2.368684292E0,1.069163829E-1,-3.239701092E-1,-1.436566830E0
2.378709292E0,2.023254037E-1,-1.600905955E-1,-1.292767406E0
2.388735292E0,2.032364607E-1,-1.018041149E-1,-1.240733147E0
2.398761292E0,1.689319313E-1,-4.504337907E-2,-1.214585900E0
2.408786292E0,2.579278350E-1,-1.887190491E-1,-1.132941365E0
2.418812292E0,3.356052935E-1,-3.550047576E-1,-1.100682378E0
2.428838292E0,2.888401747E-1,-4.097521603E-1,-1.116382837E0
2.438863292E0,2.186269462E-1,-2.945271432E-1,-1.129193544E0
2.448889292E0,1.485346854E-1,-1.065828204E-1,-1.084522486E0
2.458915292E0,8.668915927E-2,-1.390295476E-2,-9.864179492E-1
2.468941292E0,6.635068450E-3,9.118458629E-2,-9.399445057E-1
2.478966292E0,-2.262700051E-1,2.922416031E-1,-9.764730930E-1
2.488992292E0,-2.025729269E-1,2.799388953E-3,-9.862686992E-1
2.499018042E0,-7.066842914E-2,-3.666966259E-1,-8.846568465E-1
2.509043042E0,-4.546187446E-2,-5.776613355E-1,-7.617850304E-1
2.519069042E0,-1.381023377E-1,-5.838400126E-1,-8.171331882E-1
2.529095042E0,-1.614393592E-1,-3.652953804E-1,-8.347355723E-1
2.539121042E0,-1.032405794E-1,-4.184950292E-1,-8.778066039E-1
2.549146042E0,-8.476543427E-2,-3.682885766E-1,-9.411509633E-1
2.559172042E0,-1.588142663E-2,-3.953107595E-1,-9.794327617E-1
2.569198042E0,2.530063130E-2,-3.699143231E-1,-9.528077841E-1
2.579223042E0,2.221579291E-2,-2.766187489E-1,-9.337002635E-1
2.589249042E0,-1.380292885E-2,-1.870095134E-1,-9.564348459E-1
2.599275042E0,6.083152723E-3,-2.080479264E-1,-1.010746717E0
2.609300042E0,8.318912238E-2,-2.328712493E-1,-1.131234884E0
2.619326042E0,1.253830492E-1,-3.830646724E-2,-1.272840738E0
2.629352042E0,8.136843890E-2,3.200524673E-2,-1.316788316E0
2.639378042E0,2.770112082E-2,-1.756273583E-2,-1.226311326E0
2.649403042E0,-2.098412439E-2,-6.187575404E-3,-1.057797790E0
2.659429042E0,-3.605760634E-2,-9.204977006E-2,-9.647227526E-1
2.669455042E0,-6.276458502E-2,-1.191423759E-1,-1.052389741E0
2.679480042E0,-6.046370789E-2,-9.513787180E-2,-1.234036446E0
2.689506042E0,-2.837554552E-2,-8.416485041E-2,-1.389214039E0
2.699532042E0,3.277813643E-2,-1.776433885E-1,-1.550282598E0
2.709558042E0,2.061435282E-1,-2.270215899E-1,-1.598694801E0
2.719583042E0,3.303279281E-1,-2.312014550E-1,-1.589284182E0
2.729609042E0,3.518241644E-1,-1.143025309E-1,-1.626664281E0
2.739635042E0,4.268117845E-1,-1.047256216E-1,-1.691304445E0
2.749660042E0,4.858202338E-1,-1.668924093E-2,-1.780892730E0
2.759686042E0,6.371818185E-1,1.718121767E-1,-1.891576052E0
2.769712042E0,6.368989944E-1,3.353694081E-1,-1.849885821E0
2.779738042E0,6.747946739E-1,6.111770272E-1,-1.578572631E0
2.789763042E0,6.371804476E-1,6.686669588E-1,-1.285811424E0
2.799789042E0,4.690770805E-1,6.884878278E-1,-9.860768914E-1
2.809815042E0,3.412794471E-1,6.622647643E-1,-6.906388402E-1
2.819840042E0,1.722771227E-1,5.056595802E-1,-4.235889614E-1
2.829866042E0,-6.698756479E-3,4.327038825E-1,-2.683756948E-1
2.839892042E0,-5.377739668E-2,3.289980292E-1,-2.194306701E-1
2.849918042E0,-8.870875090E-2,2.570300996E-1,-2.579914033E-1
2.859943042E0,-1.820035726E-1,-5.141619593E-2,-4.778106511E-1
2.869969042E0,-3.046980500E-1,-5.278580785E-1,-6.446942091E-1
2.879995042E0,-1.895333529E-1,-8.094784617E-1,-5.722689629E-1
2.890020042E0,2.815238200E-2,-1.082588792E0,-1.540706307E-1
2.900046042E0,5.182315409E-2,-1.309339881E0,3.173515797E-1
2.910072042E0,8.748652413E-3,-1.417842150E0,4.278850257E-1
2.920098042E0,-2.341229096E-2,-1.123055696E0,1.999150813E-1
2.930123042E0,-1.065948009E-1,-8.204273582E-1,-1.293195486E-1
2.940149042E0,-1.444490850E-1,-5.324997902E-1,-5.037630200E-1
2.950175042E0,-1.693187505E-1,-3.992866278E-1,-6.096774340E-1
2.960200042E0,-2.031220794E-1,-4.923081994E-1,-5.150499940E-1
2.970226042E0,-1.824325174E-1,-3.945344985E-1,-4.526295066E-1
2.980252042E0,-1.209765226E-1,-2.627703249E-1,-3.404800892E-1
2.990277042E0,-6.388021260E-2,-2.091648877E-1,-1.867341995E-1
3.000303042E0,-3.349974006E-2,-1.349234879E-1,-4.754483700E-2
3.010329042E0,-2.967130858E-3,-4.112163186E-2,4.161499441E-3
3.020355042E0,2.899530157E-2,-3.305804357E-2,-3.298363835E-2
3.030380042E0,4.411247000E-2,-2.840219531E-3,-4.310311750E-2
3.040406042E0,1.986745186E-2,3.147853166E-2,-4.015615955E-2
3.050432042E0,-1.528866962E-2,1.805058680E-3,-2.292630635E-2
3.060457042E0,-2.823147550E-2,-2.218575776E-2,-4.524706304E-2
3.070483042E0,-1.124902908E-2,-8.078595251E-2,-8.185913414E-2
3.080509042E0,6.558702793E-3,-1.461457163E-1,-1.107309014E-1
3.090535042E0,1.159394160E-2,-1.235032529E-1,-1.031379625E-1
3.100560042E0,1.405411493E-2,-7.134643942E-2,-5.334450305E-2
3.110586042E0,9.585863911E-3,-2.235679515E-2,-1.640646160E-2
3.120612042E0,3.476301674E-3,3.673085943E-3,-2.340914682E-3
3.130637042E0,2.587338444E-3,1.527035236E-2,-7.608647458E-3
3.140663042E0,1.339020673E-3,1.142245438E-2,-2.032276429E-2
3.150689042E0,4.850131925E-3,5.402113311E-3,-2.748879790E-2
3.160715042E0,3.782046027E-3,-8.467101492E-3,-1.758556440E-2
3.170740042E0,1.361498609E-3,-2.125799656E-2,-2.040426014E-3
3.180766042E0,-4.470738117E-3,-2.028362826E-2,1.106982399E-2
3.190792042E0,-1.607892476E-2,-3.600426763E-2,7.954724133E-3
3.200817042E0,-1.937603578E-2,-5.274114013E-2,-9.664896876E-3
3.210843042E0,-6.214160472E-3,-6.041264534E-2,-3.039840609E-2
3.220869042E0,4.636758566E-2,-9.335468709E-2,-4.926034436E-2
3.230894042E0,5.015672743E-2,-1.325340420E-1,-1.020383388E-1
3.240920042E0,-1.360088401E-2,-8.110228926E-2,-1.769675612E-1
3.250946042E0,-5.542476103E-2,-3.983181715E-2,-2.432030439E-1
3.260972042E0,-7.688979805E-2,-4.887948930E-2,-3.521780670E-1
3.270997042E0,-9.624192119E-2,-4.643124342E-2,-4.927580655E-1
3.281023042E0,-1.197135523E-1,-9.789517522E-2,-5.568239093E-1
3.291049042E0,-1.076222658E-1,-1.245880425E-1,-6.059560776E-1
3.301074042E0,-6.413437426E-2,-1.673071980E-1,-6.851318479E-1
3.311100042E0,-2.139729820E-2,-1.469609141E-1,-7.951896787E-1
